#       Tempo      Altitude       Vel rad     Vel theta    Vel lambda    Raio balão
   0.00000000  850.00000000    0.00000000    0.00000000    0.00000000    1.21679652
   0.10000000  850.01662726    0.33228614    0.00039960   -0.00000224    1.21679672
   0.20000000  850.06635417    0.66148456    0.00079548   -0.00000893    1.21679732
   0.30000000  850.14872186    0.98462108    0.00118408   -0.00001989    1.21679830
   0.40000000  850.26298413    1.29894011    0.00156207   -0.00003489    1.21679967
   0.50000000  850.40813393    1.60199312    0.00192651   -0.00005361    1.21680141
   0.60000000  850.58293759    1.89170517    0.00227491   -0.00007564    1.21680350
   0.70000000  850.78597445    2.16641643    0.00260527   -0.00010057    1.21680593
   0.80000000  851.01567942    2.42489850    0.00291611   -0.00012792    1.21680868
   0.90000000  851.27038594    2.66634757    0.00320647   -0.00015724    1.21681172
   1.00000000  851.54836725    2.89035820    0.00347586   -0.00018806    1.21681505
   1.10000000  851.84787436    3.09688267    0.00372422   -0.00021995    1.21681863
   1.20000000  852.16716929    3.28618089    0.00395187   -0.00025249    1.21682246
   1.30000000  852.50455320    3.45876584    0.00415941   -0.00028533    1.21682649
   1.40000000  852.85838888    3.61534845    0.00434772   -0.00031814    1.21683073
   1.50000000  853.22711792    3.75678530    0.00451781   -0.00035064    1.21683514
   1.60000000  853.60927284    3.88403113    0.00467083   -0.00038260    1.21683971
   1.70000000  854.00348481    3.99809770    0.00480801   -0.00041381    1.21684443
   1.80000000  854.40848755    4.10001933    0.00493057   -0.00044412    1.21684928
   1.90000000  854.82311817    4.19082519    0.00503978   -0.00047342    1.21685424
   2.00000000  855.24631553    4.27151796    0.00513682   -0.00050162    1.21685930
   2.10000000  855.67711673    4.34305807    0.00522285   -0.00052866    1.21686446
   2.20000000  856.11465236    4.40635283    0.00529897   -0.00055449    1.21686970
   2.30000000  856.55814076    4.46224959    0.00536619   -0.00057910    1.21687501
   2.40000000  857.00688187    4.51153209    0.00542546   -0.00060250    1.21688038
   2.50000000  857.46025074    4.55491937    0.00547764   -0.00062468    1.21688580
   2.60000000  857.91769114    4.59306658    0.00552352   -0.00064568    1.21689128
   2.70000000  858.37870923    4.62656713    0.00556381   -0.00066552    1.21689680
   2.80000000  858.84286756    4.65595578    0.00559915   -0.00068425    1.21690235
   2.90000000  859.30977937    4.68171240    0.00563013   -0.00070189    1.21690794
   3.00000000  859.77910332    4.70426592    0.00565725   -0.00071850    1.21691356
   3.10000000  860.25053857    4.72399857    0.00568098   -0.00073411    1.21691921
   3.20000000  860.72382036    4.74124995    0.00570173   -0.00074879    1.21692487
   3.30000000  861.19871592    4.75632111    0.00571986   -0.00076256    1.21693056
   3.40000000  861.67502082    4.76947834    0.00573568   -0.00077549    1.21693626
   3.50000000  862.15255566    4.78095675    0.00574949   -0.00078761    1.21694198
   3.60000000  862.63116314    4.79096361    0.00576153   -0.00079898    1.21694771
   3.70000000  863.11070543    4.79968138    0.00577201   -0.00080962    1.21695345
   3.80000000  863.59106181    4.80727051    0.00578114   -0.00081959    1.21695920
   3.90000000  864.07212662    4.81387193    0.00578908   -0.00082893    1.21696496
   4.00000000  864.55380741    4.81960932    0.00579598   -0.00083767    1.21697073
   4.10000000  865.03602331    4.82459114    0.00580198   -0.00084585    1.21697650
   4.20000000  865.51870363    4.82891243    0.00580718   -0.00085350    1.21698228
   4.30000000  866.00178656    4.83265645    0.00581168   -0.00086066    1.21698807
   4.40000000  866.48521811    4.83589605    0.00581558   -0.00086736    1.21699386
   4.50000000  866.96895109    4.83869499    0.00581895   -0.00087362    1.21699965
   4.60000000  867.45294428    4.84110905    0.00582185   -0.00087948    1.21700545
   4.70000000  867.93716169    4.84318696    0.00582435   -0.00088495    1.21701125
   4.80000000  868.42157189    4.84497136    0.00582650   -0.00089008    1.21701705
   4.90000000  868.90614742    4.84649948    0.00582834   -0.00089486    1.21702285
   5.00000000  869.39086433    4.84780387    0.00582991   -0.00089934    1.21702866
   5.10000000  869.87570169    4.84891294    0.00583125   -0.00090353    1.21703447
   5.20000000  870.36064123    4.84985153    0.00583238   -0.00090744    1.21704028
   5.30000000  870.84566703    4.85064129    0.00583333   -0.00091110    1.21704609
   5.40000000  871.33076516    4.85130118    0.00583413   -0.00091452    1.21705190
   5.50000000  871.81592348    4.85184770    0.00583478   -0.00091772    1.21705771
   5.60000000  872.30113140    4.85229529    0.00583532   -0.00092071    1.21706352
   5.70000000  872.78637966    4.85265653    0.00583576   -0.00092351    1.21706933
   5.80000000  873.27166019    4.85294242    0.00583611   -0.00092612    1.21707515
   5.90000000  873.75696595    4.85316255    0.00583637   -0.00092857    1.21708096
   6.00000000  874.24229078    4.85332530    0.00583657   -0.00093085    1.21708678
   6.10000000  874.72762933    4.85343796    0.00583671   -0.00093299    1.21709259
   6.20000000  875.21297692    4.85350693    0.00583679   -0.00093499    1.21709841
   6.30000000  875.69832945    4.85353775    0.00583683   -0.00093686    1.21710422
   6.40000000  876.18368336    4.85353530    0.00583683   -0.00093861    1.21711004
   6.50000000  876.66903553    4.85350380    0.00583679   -0.00094025    1.21711585
   6.60000000  877.15438327    4.85344695    0.00583673   -0.00094178    1.21712167
   6.70000000  877.63972418    4.85336799    0.00583663   -0.00094322    1.21712749
   6.80000000  878.12505622    4.85326973    0.00583652   -0.00094456    1.21713330
   6.90000000  878.61037756    4.85315461    0.00583638   -0.00094581    1.21713912
   7.00000000  879.09568665    4.85302480    0.00583623   -0.00094699    1.21714494
   7.10000000  879.58098209    4.85288216    0.00583606   -0.00094809    1.21715075
   7.20000000  880.06626270    4.85272832    0.00583587   -0.00094912    1.21715657
   7.30000000  880.55152742    4.85256470    0.00583568   -0.00095009    1.21716238
   7.40000000  881.03677535    4.85239256    0.00583547   -0.00095099    1.21716820
   7.50000000  881.52200568    4.85221297    0.00583526   -0.00095184    1.21717402
   7.60000000  882.00721772    4.85202688    0.00583504   -0.00095263    1.21717983
   7.70000000  882.49241087    4.85183512    0.00583481   -0.00095337    1.21718565
   7.80000000  882.97758458    4.85163841    0.00583457   -0.00095407    1.21719146
   7.90000000  883.46273840    4.85143738    0.00583433   -0.00095472    1.21719728
   8.00000000  883.94787192    4.85123257    0.00583409   -0.00095534    1.21720309
   8.10000000  884.43298480    4.85102447    0.00583384   -0.00095591    1.21720891
   8.20000000  884.91807672    4.85081349    0.00583359   -0.00095645    1.21721472
   8.30000000  885.40314741    4.85059999    0.00583333   -0.00095696    1.21722054
   8.40000000  885.88819664    4.85038431    0.00583307   -0.00095743    1.21722636
   8.50000000  886.37322420    4.85016671    0.00583281   -0.00095788    1.21723217
   8.60000000  886.85822992    4.84994743    0.00583255   -0.00095830    1.21723799
   8.70000000  887.34321364    4.84972670    0.00583229   -0.00095870    1.21724380
   8.80000000  887.82817521    4.84950468    0.00583202   -0.00095907    1.21724961
   8.90000000  888.31311453    4.84928155    0.00583175   -0.00095942    1.21725543
   9.00000000  888.79803149    4.84905745    0.00583149   -0.00095975    1.21726124
   9.10000000  889.28292599    4.84883249    0.00583122   -0.00096005    1.21726706
   9.20000000  889.76779796    4.84860679    0.00583095   -0.00096035    1.21727287
   9.30000000  890.25264732    4.84838043    0.00583068   -0.00096062    1.21727869
   9.40000000  890.73747402    4.84815351    0.00583040   -0.00096088    1.21728450
   9.50000000  891.22227800    4.84792608    0.00583013   -0.00096112    1.21729032
   9.60000000  891.70705922    4.84769822    0.00582986   -0.00096136    1.21729613
   9.70000000  892.19181763    4.84746997    0.00582959   -0.00096157    1.21730194
   9.80000000  892.67655320    4.84724139    0.00582931   -0.00096178    1.21730776
   9.90000000  893.16126589    4.84701252    0.00582904   -0.00096198    1.21731357
  10.00000000  893.64595569    4.84678338    0.00582877   -0.00096216    1.21731938
  10.10000000  894.13062256    4.84655402    0.00582849   -0.00096233    1.21732520
  10.20000000  894.61526648    4.84632447    0.00582822   -0.00096250    1.21733101
  10.30000000  895.09988744    4.84609473    0.00582794   -0.00096266    1.21733682
  10.40000000  895.58448542    4.84586484    0.00582767   -0.00096281    1.21734264
  10.50000000  896.06906040    4.84563482    0.00582739   -0.00096295    1.21734845
  10.60000000  896.55361237    4.84540467    0.00582712   -0.00096309    1.21735426
  10.70000000  897.03814133    4.84517442    0.00582684   -0.00096321    1.21736007
  10.80000000  897.52264725    4.84494408    0.00582656   -0.00096334    1.21736589
  10.90000000  898.00713013    4.84471365    0.00582629   -0.00096345    1.21737170
  11.00000000  898.49158997    4.84448315    0.00582601   -0.00096357    1.21737751
  11.10000000  898.97602676    4.84425258    0.00582574   -0.00096367    1.21738332
  11.20000000  899.46044048    4.84402196    0.00582546   -0.00096378    1.21738914
  11.30000000  899.94483114    4.84379128    0.00582518   -0.00096387    1.21739495
  11.40000000  900.42919873    4.84356055    0.00582491   -0.00096397    1.21740076
  11.50000000  900.91354325    4.84332978    0.00582463   -0.00096406    1.21740657
  11.60000000  901.39786468    4.84309897    0.00582436   -0.00096414    1.21741238
  11.70000000  901.88216304    4.84286813    0.00582408   -0.00096423    1.21741819
  11.80000000  902.36643830    4.84263725    0.00582380   -0.00096431    1.21742401
  11.90000000  902.85069048    4.84240635    0.00582353   -0.00096439    1.21742982
  12.00000000  903.33491957    4.84217542    0.00582325   -0.00096446    1.21743563
  12.10000000  903.81912556    4.84194446    0.00582297   -0.00096453    1.21744144
  12.20000000  904.30330845    4.84171348    0.00582270   -0.00096460    1.21744725
  12.30000000  904.78746824    4.84148248    0.00582242   -0.00096467    1.21745306
  12.40000000  905.27160494    4.84125146    0.00582215   -0.00096474    1.21745887
  12.50000000  905.75571853    4.84102042    0.00582187   -0.00096480    1.21746468
  12.60000000  906.23980902    4.84078936    0.00582159   -0.00096486    1.21747049
  12.70000000  906.72387640    4.84055829    0.00582132   -0.00096492    1.21747630
  12.80000000  907.20792067    4.84032720    0.00582104   -0.00096498    1.21748211
  12.90000000  907.69194183    4.84009610    0.00582076   -0.00096504    1.21748792
  13.00000000  908.17593988    4.83986498    0.00582049   -0.00096510    1.21749373
  13.10000000  908.65991482    4.83963384    0.00582021   -0.00096515    1.21749954
  13.20000000  909.14386665    4.83940270    0.00581993   -0.00096521    1.21750535
  13.30000000  909.62779536    4.83917154    0.00581966   -0.00096526    1.21751116
  13.40000000  910.11170095    4.83894036    0.00581938   -0.00096531    1.21751697
  13.50000000  910.59558342    4.83870918    0.00581910   -0.00096536    1.21752278
  13.60000000  911.07944278    4.83847798    0.00581883   -0.00096541    1.21752859
  13.70000000  911.56327901    4.83824677    0.00581855   -0.00096546    1.21753440
  13.80000000  912.04709213    4.83801555    0.00581827   -0.00096551    1.21754021
  13.90000000  912.53088212    4.83778431    0.00581800   -0.00096556    1.21754601
  14.00000000  913.01464899    4.83755307    0.00581772   -0.00096560    1.21755182
  14.10000000  913.49839273    4.83732181    0.00581744   -0.00096565    1.21755763
  14.20000000  913.98211334    4.83709054    0.00581717   -0.00096569    1.21756344
  14.30000000  914.46581083    4.83685926    0.00581689   -0.00096574    1.21756925
  14.40000000  914.94948519    4.83662797    0.00581661   -0.00096578    1.21757506
  14.50000000  915.43313642    4.83639667    0.00581634   -0.00096583    1.21758087
  14.60000000  915.91676452    4.83616536    0.00581606   -0.00096587    1.21758667
  14.70000000  916.40036948    4.83593404    0.00581578   -0.00096591    1.21759248
  14.80000000  916.88395132    4.83570270    0.00581550   -0.00096596    1.21759829
  14.90000000  917.36751002    4.83547136    0.00581523   -0.00096600    1.21760410
  15.00000000  917.85104559    4.83524001    0.00581495   -0.00096604    1.21760990
  15.10000000  918.33455802    4.83500864    0.00581467   -0.00096608    1.21761571
  15.20000000  918.81804731    4.83477726    0.00581440   -0.00096612    1.21762152
  15.30000000  919.30151347    4.83454588    0.00581412   -0.00096616    1.21762733
  15.40000000  919.78495648    4.83431448    0.00581384   -0.00096621    1.21763313
  15.50000000  920.26837636    4.83408307    0.00581357   -0.00096625    1.21763894
  15.60000000  920.75177309    4.83385165    0.00581329   -0.00096629    1.21764475
  15.70000000  921.23514668    4.83362022    0.00581301   -0.00096633    1.21765055
  15.80000000  921.71849713    4.83338878    0.00581274   -0.00096637    1.21765636
  15.90000000  922.20182443    4.83315733    0.00581246   -0.00096641    1.21766217
  16.00000000  922.68512859    4.83292587    0.00581218   -0.00096645    1.21766797
  16.10000000  923.16840960    4.83269440    0.00581190   -0.00096648    1.21767378
  16.20000000  923.65166746    4.83246292    0.00581163   -0.00096652    1.21767958
  16.30000000  924.13490218    4.83223143    0.00581135   -0.00096656    1.21768539
  16.40000000  924.61811374    4.83199992    0.00581107   -0.00096660    1.21769120
  16.50000000  925.10130216    4.83176841    0.00581080   -0.00096664    1.21769700
  16.60000000  925.58446742    4.83153689    0.00581052   -0.00096668    1.21770281
  16.70000000  926.06760953    4.83130535    0.00581024   -0.00096672    1.21770861
  16.80000000  926.55072849    4.83107381    0.00580996   -0.00096676    1.21771442
  16.90000000  927.03382429    4.83084225    0.00580969   -0.00096679    1.21772022
  17.00000000  927.51689693    4.83061069    0.00580941   -0.00096683    1.21772603
  17.10000000  927.99994642    4.83037911    0.00580913   -0.00096687    1.21773183
  17.20000000  928.48297275    4.83014753    0.00580886   -0.00096691    1.21773764
  17.30000000  928.96597592    4.82991593    0.00580858   -0.00096695    1.21774344
  17.40000000  929.44895593    4.82968432    0.00580830   -0.00096698    1.21774925
  17.50000000  929.93191278    4.82945270    0.00580802   -0.00096702    1.21775505
  17.60000000  930.41484647    4.82922108    0.00580775   -0.00096706    1.21776086
  17.70000000  930.89775699    4.82898944    0.00580747   -0.00096710    1.21776666
  17.80000000  931.38064435    4.82875779    0.00580719   -0.00096714    1.21777246
  17.90000000  931.86350854    4.82852613    0.00580692   -0.00096717    1.21777827
  18.00000000  932.34634957    4.82829446    0.00580664   -0.00096721    1.21778407
  18.10000000  932.82916743    4.82806278    0.00580636   -0.00096725    1.21778988
  18.20000000  933.31196212    4.82783109    0.00580608   -0.00096729    1.21779568
  18.30000000  933.79473364    4.82759939    0.00580581   -0.00096732    1.21780148
  18.40000000  934.27748199    4.82736768    0.00580553   -0.00096736    1.21780729
  18.50000000  934.76020717    4.82713595    0.00580525   -0.00096740    1.21781309
  18.60000000  935.24290918    4.82690422    0.00580497   -0.00096744    1.21781889
  18.70000000  935.72558801    4.82667248    0.00580470   -0.00096747    1.21782470
  18.80000000  936.20824367    4.82644073    0.00580442   -0.00096751    1.21783050
  18.90000000  936.69087615    4.82620896    0.00580414   -0.00096755    1.21783630
  19.00000000  937.17348546    4.82597719    0.00580387   -0.00096759    1.21784210
  19.10000000  937.65607158    4.82574540    0.00580359   -0.00096762    1.21784791
  19.20000000  938.13863453    4.82551361    0.00580331   -0.00096766    1.21785371
  19.30000000  938.62117430    4.82528180    0.00580303   -0.00096770    1.21785951
  19.40000000  939.10369089    4.82504999    0.00580276   -0.00096773    1.21786531
  19.50000000  939.58618429    4.82481816    0.00580248   -0.00096777    1.21787112
  19.60000000  940.06865451    4.82458633    0.00580220   -0.00096781    1.21787692
  19.70000000  940.55110155    4.82435448    0.00580192   -0.00096785    1.21788272
  19.80000000  941.03352540    4.82412262    0.00580165   -0.00096788    1.21788852
  19.90000000  941.51592607    4.82389075    0.00580137   -0.00096792    1.21789432
  20.00000000  941.99830355    4.82365887    0.00580109   -0.00096796    1.21790012
  20.10000000  942.48065784    4.82342699    0.00580081   -0.00096799    1.21790593
  20.20000000  942.96298894    4.82319509    0.00580054   -0.00096803    1.21791173
  20.30000000  943.44529685    4.82296318    0.00580026   -0.00096807    1.21791753
  20.40000000  943.92758157    4.82273126    0.00579998   -0.00096811    1.21792333
  20.50000000  944.40984310    4.82249933    0.00579970   -0.00096814    1.21792913
  20.60000000  944.89208143    4.82226739    0.00579942   -0.00096818    1.21793493
  20.70000000  945.37429657    4.82203543    0.00579915   -0.00096822    1.21794073
  20.80000000  945.85648851    4.82180347    0.00579887   -0.00096825    1.21794653
  20.90000000  946.33865726    4.82157150    0.00579859   -0.00096829    1.21795233
  21.00000000  946.82080281    4.82133952    0.00579831   -0.00096833    1.21795813
  21.10000000  947.30292516    4.82110752    0.00579804   -0.00096837    1.21796393
  21.20000000  947.78502431    4.82087552    0.00579776   -0.00096840    1.21796973
  21.30000000  948.26710026    4.82064351    0.00579748   -0.00096844    1.21797553
  21.40000000  948.74915301    4.82041148    0.00579720   -0.00096848    1.21798133
  21.50000000  949.23118255    4.82017945    0.00579693   -0.00096851    1.21798713
  21.60000000  949.71318889    4.81994740    0.00579665   -0.00096855    1.21799293
  21.70000000  950.19517202    4.81971535    0.00579637   -0.00096859    1.21799873
  21.80000000  950.67713195    4.81948328    0.00579609   -0.00096862    1.21800453
  21.90000000  951.15906867    4.81925120    0.00579581   -0.00096866    1.21801033
  22.00000000  951.64098219    4.81901912    0.00579554   -0.00096870    1.21801613
  22.10000000  952.12287249    4.81878702    0.00579526   -0.00096874    1.21802193
  22.20000000  952.60473959    4.81855491    0.00579498   -0.00096877    1.21802773
  22.30000000  953.08658347    4.81832279    0.00579470   -0.00096881    1.21803352
  22.40000000  953.56840414    4.81809067    0.00579443   -0.00096885    1.21803932
  22.50000000  954.05020160    4.81785853    0.00579415   -0.00096888    1.21804512
  22.60000000  954.53197584    4.81762638    0.00579387   -0.00096892    1.21805092
  22.70000000  955.01372687    4.81739422    0.00579359   -0.00096896    1.21805672
  22.80000000  955.49545468    4.81716205    0.00579331   -0.00096899    1.21806252
  22.90000000  955.97715927    4.81692987    0.00579304   -0.00096903    1.21806831
  23.00000000  956.45884065    4.81669768    0.00579276   -0.00096907    1.21807411
  23.10000000  956.94049880    4.81646547    0.00579248   -0.00096911    1.21807991
  23.20000000  957.42213374    4.81623326    0.00579220   -0.00096914    1.21808571
  23.30000000  957.90374545    4.81600104    0.00579192   -0.00096918    1.21809150
